# # wavelength A B C error
388.44545000 0.00326948 2.99726179 0.00000000 -1.00000000
395.85778000 0.00328176 3.01980999 0.00000000 -1.00000000
403.27291000 0.00331492 3.08115804 0.00000000 -1.00000000
410.69075000 0.00332628 3.10231207 0.00000000 -1.00000000
418.11115000 0.00324571 2.95383977 0.00000002 -1.00000000
425.53403000 0.00316341 2.80595199 0.00000000 -1.00000000
432.95926000 0.00310212 2.69827771 0.00000000 -1.00000000
440.38673000 0.00306321 2.63101301 0.00000000 -1.00000000
447.81636000 0.00303073 2.57548637 0.00000001 -1.00000000
455.24804000 0.00300327 2.52904072 0.00000001 -1.00000000
462.68167000 0.00297587 2.48310764 0.00000001 -1.00000000
470.11716000 0.00295289 2.44491044 0.00000001 -1.00000000
477.55441000 0.00293503 2.41541873 0.00000000 -1.00000000
484.99335000 0.00289633 2.35214914 0.00000000 -1.00000000
492.43388000 0.00286336 2.29890026 0.00000000 -1.00000000
499.87593000 0.00282424 2.23652122 0.00000000 -1.00000000
507.31941000 0.00277439 2.15826792 0.00000000 -1.00000000
514.76427000 0.00272282 2.07877657 0.00000000 -1.00000000
522.21041000 0.00267565 2.00736457 0.00000000 -1.00000000
529.65776000 0.00264270 1.95822205 0.00000000 -1.00000000
537.10630000 0.00262099 1.92619593 0.00000000 -1.00000000
544.55592000 0.00259975 1.89509195 0.00000000 -1.00000000
552.00657000 0.00258989 1.88074305 0.00000000 -1.00000000
559.45822000 0.00259151 1.88310280 0.00000000 -1.00000000
566.91079000 0.00259640 1.89021412 0.00000000 -1.00000000
574.36423000 0.00259854 1.89333837 0.00000000 -1.00000000
581.81852000 0.00258991 1.88078026 0.00000000 -1.00000000
589.27360000 0.00257851 1.86425678 0.00000000 -1.00000000
596.72943000 0.00256523 1.84509461 0.00000000 -1.00000000
604.18596000 0.00255357 1.82835709 0.00000000 -1.00000000
611.64320000 0.00257714 1.86228449 0.00000000 -1.00000000
619.10107000 0.00262872 1.93756799 0.00000000 -1.00000000
626.55957000 0.00266299 1.98841380 0.00000000 -1.00000000
634.01863000 0.00266641 1.99352242 0.00000000 -1.00000000
641.47827000 0.00266201 1.98694892 0.00000000 -1.00000000
648.93843000 0.00266374 1.98955708 0.00000000 -1.00000000
656.39907000 0.00273704 2.10127908 0.00000000 -1.00000000
663.86020000 0.00302869 2.57274744 0.00000000 -1.00000000
671.32177000 0.00272964 2.08982065 0.00000000 -1.00000000
678.78375000 0.00245933 1.69589620 0.00000000 -1.00000000
686.24615000 0.00245609 1.69144263 0.00000000 -1.00000000
693.70892000 0.00242022 1.64242542 0.00000000 -1.00000000
701.17204000 0.00236440 1.56754796 0.00000000 -1.00000000
708.63549000 0.00229970 1.48290670 0.00000000 -1.00000000
716.09928000 0.00225054 1.42018291 0.00000000 -1.00000000
723.56334000 0.00222336 1.38608297 0.00000000 -1.00000000
731.02769000 0.00220705 1.36580901 0.00000000 -1.00000000
738.49229000 0.00219447 1.35029685 0.00000000 -1.00000000
745.95714000 0.00217672 1.32853571 0.00000000 -1.00000000
753.42222000 0.00216479 1.31400566 0.00000000 -1.00000000
760.88750000 0.00215532 1.30254684 0.00000000 -1.00000000
768.35299000 0.00215614 1.30353156 0.00000000 -1.00000000
775.81865000 0.00216055 1.30886846 0.00000000 -1.00000000
783.28448000 0.00217011 1.32048118 0.00000000 -1.00000000
790.75049000 0.00217340 1.32448184 0.00000000 -1.00000000
798.21660000 0.00217245 1.32332202 0.00000000 -1.00000000
805.68286000 0.00217650 1.32826904 0.00000000 -1.00000000
813.14922000 0.00218660 1.34062521 0.00000000 -1.00000000
820.61570000 0.00219996 1.35705214 0.00000000 -1.00000000
828.08225000 0.00220214 1.35974171 0.00000000 -1.00000000
835.54890000 0.00221326 1.37351372 0.00000000 -1.00000000
843.01561000 0.00222303 1.38566233 0.00000000 -1.00000000
850.48238000 0.00222743 1.39115775 0.00000000 -1.00000000
857.94920000 0.00224051 1.40753505 0.00000000 -1.00000000
865.41607000 0.00224401 1.41194448 0.00000000 -1.00000000
872.88295000 0.00224576 1.41414391 0.00000000 -1.00000000
880.34986000 0.00225822 1.42987988 0.00000000 -1.00000000
887.81677000 0.00225939 1.43136470 0.00000000 -1.00000000
895.28369000 0.00225847 1.43019844 0.00000000 -1.00000000
902.75059000 0.00227639 1.45298238 0.00000001 -1.00000000
910.21750000 0.00228451 1.46336573 0.00000001 -1.00000000
917.68436000 0.00228375 1.46238131 0.00000001 -1.00000000
925.15120000 0.00229326 1.47459593 0.00000001 -1.00000000
932.61798000 0.00231044 1.49677675 0.00000000 -1.00000000
940.08473000 0.00232345 1.51368660 0.00000000 -1.00000000
947.55144000 0.00234117 1.53686209 0.00000000 -1.00000000
955.01805000 0.00235799 1.55902169 0.00000000 -1.00000000
962.48461000 0.00235901 1.56037423 0.00000000 -1.00000000
969.95110000 0.00236120 1.56326600 0.00000000 -1.00000000
977.41750000 0.00237385 1.58005365 0.00000000 -1.00000000
984.88380000 0.00238331 1.59267390 0.00000000 -1.00000000
992.35000000 0.00237893 1.58682858 0.00000000 -1.00000000
999.81610000 0.00237979 1.58797508 0.00000000 -1.00000000
1007.28209000 0.00239060 1.60243929 0.00000000 -1.00000000
1014.74797000 0.00240188 1.61759989 0.00000000 -1.00000000
1022.21372000 0.00240067 1.61596328 0.00000000 -1.00000000
1029.67934000 0.00239098 1.60293865 0.00000000 -1.00000000
1037.14482000 0.00239144 1.60355644 0.00000000 -1.00000000
1044.61018000 0.00239781 1.61211771 0.00000000 -1.00000000
1052.07537000 0.00238853 1.59967077 0.00000000 -1.00000000
1059.54043000 0.00236644 1.57020835 0.00000000 -1.00000000
1067.00532000 0.00235682 1.55747093 0.00000000 -1.00000000
1074.47004000 0.00235739 1.55823332 0.00000000 -1.00000000
1081.93460000 0.00234671 1.54414867 0.00000002 -1.00000000
1089.39899000 0.00231919 1.50813373 0.00000002 -1.00000000
1096.86319000 0.00229675 1.47908744 0.00000003 -1.00000000
1104.32721000 0.00228249 1.46078289 0.00000000 -1.00000000
1111.79105000 0.00226841 1.44281890 0.00000000 -1.00000000
1119.25469000 0.00225140 1.42115295 0.00000317 -1.00000000
1126.71813000 0.00217847 1.32570871 0.00018716 -1.00000000
1134.18139000 0.00171454 0.71666278 0.00192354 -1.00000000
1141.64442000 0.00216861 1.31865291 0.00000000 -1.00000000
1149.10725000 0.00214710 1.29263548 0.00000001 -1.00000000
1156.56985000 0.00211784 1.25765545 0.00000000 -1.00000000
1164.03223000 0.00208489 1.21881745 0.00000001 -1.00000000
1171.49439000 0.00205153 1.18012694 0.00000000 -1.00000000
1178.95633000 0.00202243 1.14688393 0.00000000 -1.00000000
1186.41803000 0.00199946 1.12097450 0.00000000 -1.00000000
1193.87949000 0.00197546 1.09423729 0.00000000 -1.00000000
1201.34069000 0.00194528 1.06105986 0.00000000 -1.00000000
1208.80166000 0.00191067 1.02364391 0.00000000 -1.00000000
1216.26238000 0.00187473 0.98549671 0.00000000 -1.00000000
1223.72285000 0.00184175 0.95112473 0.00000000 -1.00000000
1231.18305000 0.00181128 0.91989528 0.00000000 -1.00000000
1238.64299000 0.00180196 0.91045696 0.00000000 -1.00000000
1246.10266000 0.00181452 0.92319574 0.00000000 -1.00000000
1253.56207000 0.00182946 0.93845909 0.00000000 -1.00000000
1261.02119000 0.00183446 0.94359162 0.00000000 -1.00000000
1268.48005000 0.00183574 0.94491160 0.00000000 -1.00000000
1275.93861000 0.00183872 0.94799509 0.00000000 -1.00000000
1283.39689000 0.00189680 1.01248778 0.00000000 -1.00000000
1290.85489000 0.00233405 1.53585263 0.00000000 -1.00000000
1298.31258000 0.00281529 2.25326795 0.00000001 -1.00000000
1305.76998000 0.00168484 0.79670618 0.00000000 -1.00000000
1313.22710000 0.00152185 0.64979882 0.00000001 -1.00000000
1320.68390000 0.00164799 0.76151198 0.00000000 -1.00000000
1328.14038000 0.00164002 0.75420495 0.00000000 -1.00000000
1335.59657000 0.00159659 0.71477556 0.00000000 -1.00000000
1343.05243000 0.00154157 0.66688919 0.00007025 -1.00000000
1350.50798000 0.00913171 0.38996204 0.00076884 -1.00000000
1357.96320000 0.09507804 0.06950062 0.00000033 -1.00000000
1365.41811000 0.09519770 0.06912066 0.00000082 -1.00000000
1372.87268000 0.09515540 0.06920093 0.00000238 -1.00000000
1380.32692000 0.09514500 0.06922020 0.00000212 -1.00000000
1387.78084000 0.09512868 0.06927122 0.00000148 -1.00000000
1395.23441000 0.09521099 0.06934214 0.00000055 -1.00000000
1402.68765000 0.08699916 0.08174845 0.00010854 -1.00000000
1410.14053000 0.00090283 0.22357003 0.00120993 -1.00000000
1417.59307000 0.00113253 0.35244838 0.00072939 -1.00000000
1425.04525000 0.00116301 0.36784875 0.00062566 -1.00000000
1432.49710000 0.00117675 0.37482228 0.00055524 -1.00000000
1439.94856000 0.00118657 0.38403978 0.00049205 -1.00000000
1447.39969000 0.00136972 0.52605812 0.00000000 -1.00000000
1454.85044000 0.00135629 0.51579126 0.00000003 -1.00000000
1462.30082000 0.00134629 0.50820645 0.00000001 -1.00000000
1469.75084000 0.00133872 0.50250680 0.00000005 -1.00000000
1477.20049000 0.00132987 0.49589191 0.00000001 -1.00000000
1484.64976000 0.00131841 0.48738551 0.00000000 -1.00000000
1492.09864000 0.00130624 0.47841929 0.00000004 -1.00000000
1499.54716000 0.00129397 0.46947814 0.00000000 -1.00000000
1506.99528000 0.00128220 0.46098200 0.00000000 -1.00000000
1514.44302000 0.00127498 0.45580017 0.00000000 -1.00000000
1521.89037000 0.00126790 0.45075619 0.00000000 -1.00000000
1529.33732000 0.00125791 0.44367763 0.00000000 -1.00000000
1536.78388000 0.00124760 0.43643776 0.00000000 -1.00000000
1544.23005000 0.00123824 0.42990728 0.00000000 -1.00000000
1551.67581000 0.00123115 0.42500293 0.00000000 -1.00000000
1559.12115000 0.00122399 0.42007147 0.00000000 -1.00000000
1566.56610000 0.00121502 0.41393635 0.00000000 -1.00000000
1574.01063000 0.00120452 0.40681456 0.00000000 -1.00000000
1581.45474000 0.00119778 0.40227567 0.00000000 -1.00000000
1588.89845000 0.00119379 0.39959990 0.00000000 -1.00000000
1596.34173000 0.00118948 0.39671608 0.00000000 -1.00000000
1603.78460000 0.00118154 0.39143798 0.00000000 -1.00000000
1611.22703000 0.00117201 0.38514938 0.00000001 -1.00000000
1618.66905000 0.00116309 0.37927101 0.00000007 -1.00000000
1626.11062000 0.00115701 0.37531944 0.00000006 -1.00000000
1633.55177000 0.00115138 0.37167630 0.00000006 -1.00000000
1640.99248000 0.00114500 0.36756438 0.00000008 -1.00000000
1648.43275000 0.00113978 0.36422385 0.00000007 -1.00000000
1655.87258000 0.00113576 0.36166067 0.00000007 -1.00000000
1663.31197000 0.00113069 0.35843422 0.00000007 -1.00000000
1670.75092000 0.00112490 0.35477734 0.00000007 -1.00000000
1678.18941000 0.00111918 0.35117340 0.00000007 -1.00000000
1685.62744000 0.00111456 0.34827800 0.00000007 -1.00000000
1693.06503000 0.00111111 0.34612288 0.00000007 -1.00000000
1700.50215000 0.00110799 0.34418350 0.00000007 -1.00000000
1707.93882000 0.00110491 0.34231187 0.00000000 -1.00000000
1715.37502000 0.00110100 0.33989135 0.00000000 -1.00000000
1722.81076000 0.00109544 0.33646577 0.00000000 -1.00000000
1730.24604000 0.00108971 0.33295748 0.00000000 -1.00000000
1737.68083000 0.00108416 0.32957476 0.00000000 -1.00000000
1745.11515000 0.00108024 0.32719338 0.00000000 -1.00000000
1752.54900000 0.00107629 0.32480561 0.00000000 -1.00000000
1759.98237000 0.00107191 0.32217121 0.00000000 -1.00000000
1767.41527000 0.00106727 0.31938426 0.00000000 -1.00000000
1774.84768000 0.00106441 0.31767597 0.00000000 -1.00000000
1782.27960000 0.00106286 0.31674682 0.00000001 -1.00000000
1789.71102000 0.00106049 0.31533693 0.00000002 -1.00000000
1797.14197000 0.00105741 0.31350867 0.00000000 -1.00000000
1804.57242000 0.00105587 0.31259762 0.00000001 -1.00000000
1812.00237000 0.00105706 0.31330421 0.00000003 -1.00000000
1819.43181000 0.00996892 0.29351858 0.00000041 -1.00000000
1826.86076000 0.09555354 0.06868974 0.00000397 -1.00000000
1834.28921000 0.09568508 0.06839314 0.00000121 -1.00000000
1841.71713000 0.09557210 0.06840013 0.00000023 -1.00000000
1849.14457000 0.09557142 0.06840143 0.00000018 -1.00000000
1856.57149000 0.09557296 0.06839862 0.00000054 -1.00000000
1863.99789000 0.09556820 0.06840902 0.00000222 -1.00000000
1871.42377000 0.09558675 0.06837172 0.00000097 -1.00000000
1878.84914000 0.09556849 0.06840720 0.00000020 -1.00000000
1886.27399000 0.09554521 0.06845330 0.00000080 -1.00000000
1893.69830000 0.09555291 0.06843836 0.00000109 -1.00000000
1901.12209000 0.09557624 0.06839191 0.00000012 -1.00000000
1908.54536000 0.09557515 0.06839416 0.00000032 -1.00000000
1915.96808000 0.09555352 0.06846325 0.00000076 -1.00000000
1923.39030000 0.09562357 0.06858091 0.00000026 -1.00000000
1930.81195000 0.08693006 0.08899117 0.00000061 -1.00000000
1938.23307000 0.00101937 0.29135630 0.00000006 -1.00000000
1945.65364000 0.00101377 0.28817068 0.00000001 -1.00000000
1953.07368000 0.00101024 0.28616612 0.00000001 -1.00000000
1960.49316000 0.00100849 0.28517469 0.00000000 -1.00000000
1967.91210000 0.00100672 0.28417165 0.00000000 -1.00000000
1975.33050000 0.00100610 0.28382248 0.00000001 -1.00000000
1982.74833000 0.00100474 0.28305713 0.00000000 -1.00000000
1990.16561000 0.00100250 0.28179501 0.00000000 -1.00000000
1997.58233000 0.00099950 0.28011053 0.00000002 -1.00000000
2004.99849000 0.00099516 0.27768285 0.00000000 -1.00000000
2012.41407000 0.00099361 0.27682282 0.00000000 -1.00000000
2019.82911000 0.00099459 0.27737040 0.00000000 -1.00000000
2027.24357000 0.00099520 0.27770568 0.00000000 -1.00000000
2034.65745000 0.00099379 0.27692077 0.00000000 -1.00000000
2042.07076000 0.00099139 0.27558360 0.00000000 -1.00000000
2049.48350000 0.00098923 0.27438564 0.00000000 -1.00000000
2056.89566000 0.00098819 0.27380957 0.00000001 -1.00000000
2064.30723000 0.00098772 0.27354649 0.00000000 -1.00000000
2071.71823000 0.00098745 0.27339823 0.00000000 -1.00000000
2079.12864000 0.00098732 0.27332611 0.00000000 -1.00000000
2086.53847000 0.00098693 0.27311180 0.00000000 -1.00000000
2093.94770000 0.00098584 0.27250763 0.00000000 -1.00000000
2101.35635000 0.00098491 0.27199592 0.00000000 -1.00000000
2108.76439000 0.00098434 0.27167832 0.00000000 -1.00000000
2116.17184000 0.00098461 0.27183292 0.00000000 -1.00000000
2123.57869000 0.00098543 0.27228193 0.00000000 -1.00000000
2130.98492000 0.00098580 0.27248793 0.00000000 -1.00000000
2138.39058000 0.00098507 0.27208465 0.00000000 -1.00000000
2145.79561000 0.00098363 0.27129066 0.00000000 -1.00000000
2153.20003000 0.00098221 0.27050570 0.00000000 -1.00000000
2160.60386000 0.00098052 0.26957519 0.00000000 -1.00000000
2168.00705000 0.00097784 0.26810245 0.00000000 -1.00000000
2175.40963000 0.00097547 0.26680500 0.00000000 -1.00000000
2182.81160000 0.00097358 0.26577207 0.00000000 -1.00000000
2190.21294000 0.00097289 0.26539906 0.00000000 -1.00000000
2197.61367000 0.00097295 0.26542821 0.00000000 -1.00000000
2205.01376000 0.00097436 0.26619684 0.00000000 -1.00000000
2212.41324000 0.00097614 0.26717577 0.00000000 -1.00000000
2219.81207000 0.00097769 0.26802147 0.00000000 -1.00000000
2227.21027000 0.00097777 0.26806680 0.00000000 -1.00000000
2234.60784000 0.00097708 0.26768868 0.00000000 -1.00000000
2242.00477000 0.00097680 0.26753701 0.00000000 -1.00000000
2249.40106000 0.00097734 0.26783291 0.00000000 -1.00000000
2256.79672000 0.00097796 0.26817088 0.00000000 -1.00000000
2264.19172000 0.00097764 0.26799559 0.00000000 -1.00000000
2271.58609000 0.00097770 0.26802465 0.00000000 -1.00000000
2278.97980000 0.00097695 0.26761952 0.00000000 -1.00000000
2286.37285000 0.00097668 0.26746677 0.00000000 -1.00000000
2293.76526000 0.00097716 0.26773293 0.00000000 -1.00000000
2301.15701000 0.00097829 0.26835327 0.00000000 -1.00000000
2308.54810000 0.00097995 0.26926257 0.00000000 -1.00000000
2315.93853000 0.00098040 0.26951344 0.00000000 -1.00000000
2323.32830000 0.00097952 0.26902468 0.00000000 -1.00000000
2330.71740000 0.00097792 0.26815220 0.00000000 -1.00000000
2338.10584000 0.00097660 0.26742461 0.00000000 -1.00000000
2345.49359000 0.00097619 0.26720122 0.00000001 -1.00000000
2352.88070000 0.00097752 0.26792905 0.00000001 -1.00000000
2360.26712000 0.00097937 0.26894193 0.00000001 -1.00000000
2367.65285000 0.00098016 0.26937617 0.00000002 -1.00000000
2375.03792000 0.00097984 0.26919837 0.00000003 -1.00000000
2382.42229000 0.00097915 0.26881759 0.00000005 -1.00000000
2389.80601000 0.00098018 0.26938274 0.00000005 -1.00000000
2397.18901000 0.00098220 0.27049776 0.00000003 -1.00000000
2404.57133000 0.00098616 0.27268484 0.00000000 -1.00000000
2411.95296000 0.00099001 0.27482346 0.00000000 -1.00000000
2419.33391000 0.00099232 0.27610270 0.00000000 -1.00000000
2426.71416000 0.00099454 0.27734454 0.00000000 -1.00000000
2434.09371000 0.00099767 0.27909188 0.00000000 -1.00000000
2441.47255000 0.00100105 0.28098711 0.00000000 -1.00000000
2448.85070000 0.00100705 0.28436313 0.00000000 -1.00000000
2456.22814000 0.00101494 0.28883725 0.00000000 -1.00000000
2463.60489000 0.00102340 0.29367879 0.00000000 -1.00000000
2470.98090000 0.00103247 0.29890518 0.00000001 -1.00000000
2478.35622000 0.00104287 0.30495052 0.00000002 -1.00000000
2485.73083000 0.00105560 0.31244737 0.00000005 -1.00000000
2493.10471000 0.00107058 0.32136660 0.00000192 -1.00000000
